# Pion production rate for protons and neutrons on the CMB
# Energy [EeV], Rate [1/Mpc]
27.8256 0.000002 0.000002
30.5385 0.000014 0.000014
 33.516 0.000047 0.000047
36.7838 0.000124 0.000125
40.3702 0.000285 0.000288
44.3062 0.000592 0.000599
 48.626 0.001140 0.001157
 53.367 0.002063 0.002114
58.5702 0.003546 0.003627
64.2807 0.005799 0.005921
 70.548 0.009057 0.009251
77.4264 0.013527 0.013942
84.9753 0.019549 0.020099
93.2603 0.027267 0.028062
102.353 0.036799 0.037986
112.332 0.048081 0.049802
123.285 0.061260 0.063462
135.305 0.075832 0.078712
148.497 0.091910 0.095028
162.975 0.108582 0.112448
178.865 0.125772 0.130093
196.304 0.143071 0.147630
215.443 0.160037 0.164846
236.449 0.176324 0.180892
259.503 0.191526 0.196002
284.804 0.205721 0.208976
312.571 0.218437 0.220752
343.047 0.229792 0.230722
376.494 0.239365 0.238807
413.201 0.247620 0.245299
453.488 0.254660 0.249594
497.703 0.259769 0.252774
546.227 0.263563 0.254125
599.484 0.266055 0.254305
657.933 0.267122 0.253342
 722.08 0.266827 0.251240
792.482 0.265793 0.248430
869.749 0.263887 0.244925
954.549 0.260846 0.240751
1047.61 0.256896 0.235757
1149.76 0.253337 0.231544
1261.86 0.248657 0.226097
1384.89 0.243477 0.220712
1519.91 0.238335 0.215280
 1668.1 0.233420 0.210349
1830.74 0.228753 0.206059
2009.23 0.223538 0.200994
2205.13 0.217854 0.195703
2420.13 0.213364 0.191622
2656.09 0.209275 0.188070
2915.05 0.205301 0.184627
3199.27 0.200908 0.180907
3511.19 0.196384 0.176939
3853.53 0.192000 0.173154
4229.24 0.188169 0.169806
4641.59 0.184618 0.166795
5094.13 0.181304 0.164143
5590.81 0.178398 0.161827
6135.91 0.175843 0.159813
6734.16 0.173217 0.157712
7390.72 0.170691 0.155648
8111.31 0.168400 0.153809
8902.16 0.166291 0.152190
9770.09 0.164317 0.150694
10722.7 0.162493 0.149341
11768.1 0.160842 0.148175
12915.5 0.159371 0.147144
14174.7 0.157995 0.146195
15556.8 0.156751 0.145348
17073.5 0.155629 0.144583
18738.2 0.154596 0.143929
20565.1 0.153655 0.143323
22570.2 0.152804 0.142830
24770.8 0.152056 0.142426
27185.9 0.151434 0.142094
29836.5 0.150843 0.141809
32745.5 0.150321 0.141590
35938.1 0.149908 0.141452
39442.1 0.149521 0.141319
43287.6 0.149219 0.141277
47508.1 0.148942 0.141249
52140.1 0.148760 0.141300
57223.7 0.148588 0.141362
62802.8 0.148490 0.141492
68926.1 0.148450 0.141672
75646.4 0.148431 0.141868
83021.6 0.148461 0.142093
91116.2 0.148545 0.142375
 100000 0.148671 0.142692
