# Interaction rate with the cosmic infrared and optical background radiation model of Stecker at al. 2005
# log10(E/eV)	1/lambda_PP [1/Mpc]	1/lambda_ICS [1/Mpc]	1/lambda_DPP [1/Mpc]	1/lambda_TPP [1/Mpc]
12.750	9.318742e-03	4.756392e-01	3.364850e-08	7.765232e-05
12.760	9.436446e-03	4.111015e-01	3.464064e-08	7.933880e-05
12.770	9.555893e-03	4.213492e-01	3.563698e-08	8.101996e-05
12.780	9.677344e-03	4.310739e-01	3.665223e-08	8.273246e-05
12.790	9.801412e-03	4.398389e-01	3.774246e-08	8.454660e-05
12.800	9.928004e-03	4.490059e-01	3.880020e-08	8.631155e-05
12.810	1.005735e-02	4.585591e-01	3.990248e-08	8.813062e-05
12.820	1.018844e-02	4.685342e-01	4.099636e-08	8.994106e-05
12.830	1.032228e-02	4.781728e-01	4.217012e-08	9.185958e-05
12.840	1.045856e-02	4.879060e-01	4.331323e-08	9.373435e-05
12.850	1.059819e-02	4.656718e-01	4.447137e-08	9.565477e-05
12.860	1.074017e-02	4.758782e-01	4.567167e-08	9.757049e-05
12.870	1.088472e-02	4.864912e-01	4.687276e-08	9.951940e-05
12.880	1.103238e-02	4.967987e-01	4.815248e-08	1.015763e-04
12.890	1.118323e-02	5.067760e-01	4.939954e-08	1.035851e-04
12.900	1.133753e-02	5.171470e-01	5.069342e-08	1.056514e-04
12.910	1.149488e-02	5.279783e-01	5.197741e-08	1.077068e-04
12.920	1.165548e-02	5.376405e-01	5.334488e-08	1.098800e-04
12.930	1.181962e-02	4.707349e-01	5.468203e-08	1.120081e-04
12.940	1.198790e-02	4.807434e-01	5.603473e-08	1.141848e-04
12.950	1.216047e-02	4.912067e-01	5.743108e-08	1.163581e-04
12.960	1.233691e-02	5.019731e-01	5.882773e-08	1.185679e-04
12.970	1.251748e-02	5.131347e-01	6.030668e-08	1.208918e-04
12.980	1.270248e-02	5.234811e-01	6.175287e-08	1.231701e-04
12.990	1.289218e-02	5.336298e-01	6.324774e-08	1.255085e-04
13.000	1.308780e-02	5.187277e-01	6.473119e-08	1.278341e-04
13.010	1.328762e-02	5.294058e-01	6.630146e-08	1.302902e-04
13.020	1.349293e-02	5.404795e-01	6.784184e-08	1.326994e-04
13.030	1.370369e-02	5.508239e-01	6.939845e-08	1.351335e-04
13.040	1.392162e-02	5.605423e-01	7.099986e-08	1.376208e-04
13.050	1.414587e-02	5.706745e-01	7.260063e-08	1.401207e-04
13.060	1.437728e-02	5.812508e-01	7.428751e-08	1.427426e-04
13.070	1.461507e-02	5.177331e-01	7.594161e-08	1.453216e-04
13.080	1.486074e-02	5.278881e-01	7.764653e-08	1.479672e-04
13.090	1.511609e-02	5.381269e-01	7.933789e-08	1.505969e-04
13.100	1.538065e-02	5.488012e-01	8.111919e-08	1.533673e-04
13.110	1.565501e-02	5.595639e-01	8.287127e-08	1.560940e-04
13.120	1.593806e-02	5.706023e-01	8.464054e-08	1.588489e-04
13.130	1.623309e-02	5.510370e-01	8.645555e-08	1.616608e-04
13.140	1.653903e-02	5.615525e-01	8.826871e-08	1.644880e-04
13.150	1.686004e-02	5.713864e-01	9.017211e-08	1.674477e-04
13.160	1.719124e-02	5.813182e-01	9.204291e-08	1.703676e-04
13.170	1.753644e-02	5.916579e-01	9.396655e-08	1.733619e-04
13.180	1.789710e-02	5.313743e-01	9.587470e-08	1.763376e-04
13.190	1.827529e-02	5.418701e-01	9.787584e-08	1.794647e-04
13.200	1.867077e-02	5.527628e-01	9.984873e-08	1.825528e-04
13.210	1.908216e-02	5.638777e-01	1.018403e-07	1.856745e-04
13.220	1.951295e-02	5.739024e-01	1.038784e-07	1.888586e-04
13.230	1.996308e-02	5.603796e-01	1.059133e-07	1.920595e-04
13.240	2.043958e-02	5.702444e-01	1.080430e-07	1.954053e-04
13.250	2.093621e-02	5.803999e-01	1.101406e-07	1.987144e-04
13.260	2.145768e-02	5.904432e-01	1.122937e-07	2.021085e-04
13.270	2.200473e-02	6.006046e-01	1.144292e-07	2.054813e-04
13.280	2.258209e-02	5.441709e-01	1.166608e-07	2.090169e-04
13.290	2.318926e-02	5.551353e-01	1.188656e-07	2.125193e-04
13.300	2.382726e-02	5.647416e-01	1.210913e-07	2.160634e-04
13.310	2.449692e-02	5.742107e-01	1.233648e-07	2.196761e-04
13.320	2.520048e-02	5.566089e-01	1.256337e-07	2.233073e-04
13.330	2.594680e-02	5.667549e-01	1.280025e-07	2.270973e-04
13.340	2.673015e-02	5.764191e-01	1.303405e-07	2.308544e-04
13.350	2.755523e-02	5.864625e-01	1.327369e-07	2.347093e-04
13.360	2.842090e-02	5.963008e-01	1.351146e-07	2.385415e-04
13.370	2.933592e-02	5.426206e-01	1.375916e-07	2.425518e-04
13.380	3.029850e-02	5.519979e-01	1.400438e-07	2.465316e-04
13.390	3.131446e-02	5.615710e-01	1.425204e-07	2.505632e-04
13.400	3.237804e-02	5.710896e-01	1.450465e-07	2.546738e-04
13.410	3.349589e-02	5.601877e-01	1.475670e-07	2.588047e-04
13.420	3.467922e-02	5.699786e-01	1.501932e-07	2.631099e-04
13.430	3.592330e-02	5.793944e-01	1.527907e-07	2.673874e-04
13.440	3.723339e-02	5.888993e-01	1.554504e-07	2.717783e-04
13.450	3.860364e-02	5.378457e-01	1.580912e-07	2.761475e-04
13.460	4.004988e-02	5.469496e-01	1.608348e-07	2.807107e-04
13.470	4.156862e-02	5.564289e-01	1.635566e-07	2.852498e-04
13.480	4.317106e-02	5.657029e-01	1.663074e-07	2.898527e-04
13.490	4.484461e-02	5.501308e-01	1.691104e-07	2.945491e-04
13.500	4.659841e-02	5.594929e-01	1.719077e-07	2.992683e-04
13.510	4.843874e-02	5.682343e-01	1.748174e-07	3.041831e-04
13.520	5.037227e-02	5.197619e-01	1.777014e-07	3.090829e-04
13.530	5.239603e-02	5.289028e-01	1.806523e-07	3.141094e-04
13.540	5.450841e-02	5.379972e-01	1.835859e-07	3.191258e-04
13.550	5.670923e-02	5.466047e-01	1.866265e-07	3.243493e-04
13.560	5.900573e-02	5.370561e-01	1.896491e-07	3.295648e-04
13.570	6.141808e-02	5.458667e-01	1.927070e-07	3.348631e-04
13.580	6.392737e-02	5.539765e-01	1.958209e-07	3.402726e-04
13.590	6.654485e-02	5.085359e-01	1.989300e-07	3.457142e-04
13.600	6.925238e-02	5.172148e-01	2.021591e-07	3.513712e-04
13.610	7.208975e-02	5.254567e-01	2.053669e-07	3.570414e-04
13.620	7.503898e-02	5.338006e-01	2.086478e-07	3.628616e-04
13.630	7.810875e-02	5.201634e-01	2.119145e-07	3.686870e-04
13.640	8.127505e-02	5.280201e-01	2.152930e-07	3.747438e-04
13.650	8.455393e-02	5.361571e-01	2.186589e-07	3.808078e-04
13.660	8.795933e-02	4.930978e-01	2.220678e-07	3.869964e-04
13.670	9.149054e-02	5.010147e-01	2.255382e-07	3.933295e-04
13.680	9.514061e-02	5.091591e-01	2.290065e-07	3.997140e-04
13.690	9.888395e-02	5.006380e-01	2.326032e-07	4.063523e-04
13.700	1.027425e-01	5.082599e-01	2.361850e-07	4.130232e-04
13.710	1.067135e-01	5.159096e-01	2.398471e-07	4.199015e-04
13.720	1.108244e-01	4.749341e-01	2.435010e-07	4.268187e-04
13.730	1.150287e-01	4.825447e-01	2.472728e-07	4.340052e-04
13.740	1.193485e-01	4.902825e-01	2.510390e-07	4.412287e-04
13.750	1.237478e-01	4.780296e-01	2.548579e-07	4.486241e-04
13.760	1.282968e-01	4.854244e-01	2.587463e-07	4.562416e-04
13.770	1.329537e-01	4.924140e-01	2.626372e-07	4.639466e-04
13.780	1.377024e-01	4.536548e-01	2.666667e-07	4.719602e-04
13.790	1.425261e-01	4.610423e-01	2.706897e-07	4.800499e-04
13.800	1.474407e-01	4.685220e-01	2.748026e-07	4.884131e-04
13.810	1.524774e-01	4.606893e-01	2.789170e-07	4.969013e-04
13.820	1.576004e-01	4.673423e-01	2.831572e-07	5.057253e-04
13.830	1.628129e-01	4.740483e-01	2.874016e-07	5.146522e-04
13.840	1.680459e-01	4.374104e-01	2.917109e-07	5.238202e-04
13.850	1.733818e-01	4.444274e-01	2.961016e-07	5.332939e-04
13.860	1.787848e-01	4.513610e-01	3.005033e-07	5.429613e-04
13.870	1.842609e-01	4.398165e-01	3.050572e-07	5.530248e-04
13.880	1.897572e-01	4.461950e-01	3.096164e-07	5.632444e-04
13.890	1.953027e-01	4.525803e-01	3.142779e-07	5.738370e-04
13.900	2.008805e-01	4.180605e-01	3.189577e-07	5.846845e-04
13.910	2.064631e-01	4.248949e-01	3.237753e-07	5.959965e-04
13.920	2.121610e-01	4.308231e-01	3.286122e-07	6.075055e-04
13.930	2.175972e-01	4.235180e-01	3.335304e-07	6.193728e-04
13.940	2.232905e-01	4.295983e-01	3.385482e-07	6.316689e-04
13.950	2.273393e-01	4.355696e-01	3.435918e-07	6.443176e-04
13.960	2.331125e-01	4.032436e-01	3.488091e-07	6.575164e-04
13.970	2.388566e-01	4.088884e-01	3.540490e-07	6.710064e-04
13.980	2.434181e-01	3.986491e-01	3.594106e-07	6.850263e-04
13.990	2.491168e-01	4.044565e-01	3.648169e-07	6.994492e-04
14.000	2.507536e-01	4.101298e-01	3.703819e-07	7.145398e-04
14.010	2.565506e-01	3.794511e-01	3.759912e-07	7.299981e-04
14.020	2.604315e-01	3.848833e-01	3.817065e-07	7.459744e-04
14.030	2.661248e-01	3.901762e-01	3.875506e-07	7.625727e-04
14.040	2.648836e-01	3.837534e-01	3.934458e-07	7.797488e-04
14.050	2.706276e-01	3.890950e-01	3.995517e-07	7.977385e-04
14.060	2.763057e-01	3.599458e-01	4.057089e-07	8.161749e-04
14.070	2.785135e-01	3.650817e-01	4.120191e-07	8.353324e-04
14.080	2.840507e-01	3.700624e-01	4.184171e-07	8.551304e-04
14.090	2.800669e-01	3.609543e-01	4.250105e-07	8.758459e-04
14.100	2.857041e-01	3.660286e-01	4.316910e-07	8.972240e-04
14.110	2.875985e-01	3.712397e-01	4.385190e-07	9.192864e-04
14.120	2.930641e-01	3.432762e-01	4.455225e-07	9.422218e-04
14.130	2.863442e-01	3.480133e-01	4.526204e-07	9.660032e-04
14.140	2.918466e-01	3.422173e-01	4.599927e-07	9.908618e-04
14.150	2.972593e-01	3.469893e-01	4.674653e-07	1.016511e-03
14.160	2.970740e-01	3.518582e-01	4.751460e-07	1.043043e-03
14.170	3.022826e-01	3.253252e-01	4.829805e-07	1.070466e-03
14.180	2.933042e-01	3.297723e-01	4.910117e-07	1.099014e-03
14.190	2.986199e-01	3.216620e-01	4.993268e-07	1.128848e-03
14.200	2.987246e-01	3.261947e-01	5.077992e-07	1.159586e-03
14.210	3.038281e-01	3.307138e-01	5.165215e-07	1.191280e-03
14.220	2.927301e-01	3.056522e-01	5.254104e-07	1.224100e-03
14.230	2.978601e-01	3.098679e-01	5.346778e-07	1.258368e-03
14.240	3.028880e-01	3.046365e-01	5.441285e-07	1.293769e-03
14.250	3.008362e-01	3.088722e-01	5.538803e-07	1.330413e-03
14.260	3.056216e-01	3.130451e-01	5.638859e-07	1.367978e-03
14.270	2.929831e-01	2.893414e-01	5.741934e-07	1.406988e-03
14.280	2.978848e-01	2.932993e-01	5.848977e-07	1.447629e-03
14.290	2.966086e-01	2.859347e-01	5.958807e-07	1.489483e-03
14.300	3.012789e-01	2.899278e-01	6.072287e-07	1.532687e-03
14.310	2.872352e-01	2.938103e-01	6.188614e-07	1.576957e-03
14.320	2.919262e-01	2.714382e-01	6.310237e-07	1.622999e-03
14.330	2.965111e-01	2.751673e-01	6.435059e-07	1.670561e-03
14.340	2.930688e-01	2.704709e-01	6.564382e-07	1.719750e-03
14.350	2.973952e-01	2.741938e-01	6.697708e-07	1.770082e-03
14.360	2.825072e-01	2.776720e-01	6.835638e-07	1.821682e-03
14.370	2.869542e-01	2.566189e-01	6.979198e-07	1.875279e-03
14.380	2.847318e-01	2.600873e-01	7.127434e-07	1.930458e-03
14.390	2.889437e-01	2.535868e-01	7.281028e-07	1.987322e-03
14.400	2.732846e-01	2.570426e-01	7.439271e-07	2.045392e-03
14.410	2.775104e-01	2.602440e-01	7.604792e-07	2.105025e-03
14.420	2.816321e-01	2.404828e-01	7.775577e-07	2.166433e-03
14.430	2.774242e-01	2.437447e-01	7.953019e-07	2.229736e-03
14.440	2.812846e-01	2.395130e-01	8.136526e-07	2.294491e-03
14.450	2.653483e-01	2.426785e-01	8.326809e-07	2.360652e-03
14.460	2.693321e-01	2.239994e-01	8.524985e-07	2.427733e-03
14.470	2.665391e-01	2.270157e-01	8.730386e-07	2.497483e-03
14.480	2.702945e-01	2.300269e-01	8.943557e-07	2.569241e-03
14.490	2.540893e-01	2.242039e-01	9.163920e-07	2.641142e-03
14.500	2.578543e-01	2.271273e-01	9.393883e-07	2.715625e-03
14.510	2.615210e-01	2.095373e-01	9.631890e-07	2.785423e-03
14.520	2.568603e-01	2.123722e-01	9.879358e-07	2.863752e-03
14.530	2.602744e-01	2.151633e-01	1.013563e-06	2.943823e-03
14.540	2.442113e-01	2.113977e-01	1.040139e-06	3.021964e-03
14.550	2.477465e-01	2.140323e-01	1.067790e-06	3.104968e-03
14.560	2.446770e-01	1.975552e-01	1.096452e-06	3.173846e-03
14.570	2.479969e-01	2.001767e-01	1.126207e-06	3.260882e-03
14.580	2.320235e-01	1.950243e-01	1.157004e-06	3.340083e-03
14.590	2.353476e-01	1.975893e-01	1.189005e-06	3.430373e-03
14.600	2.385813e-01	1.999764e-01	1.222139e-06	3.521784e-03
14.610	2.338853e-01	1.845666e-01	1.256531e-06	3.586270e-03
14.620	2.368803e-01	1.870160e-01	1.292131e-06	3.682288e-03
14.630	2.213294e-01	1.836765e-01	1.328975e-06	3.767732e-03
14.640	2.244419e-01	1.860154e-01	1.367240e-06	3.866526e-03
14.650	2.213076e-01	1.881494e-01	1.406757e-06	3.966496e-03
14.660	2.242217e-01	1.737258e-01	1.447751e-06	4.023986e-03
14.670	2.090015e-01	1.759610e-01	1.490038e-06	4.128540e-03
14.680	2.119169e-01	1.713665e-01	1.533875e-06	4.212256e-03
14.690	2.147503e-01	1.734984e-01	1.579183e-06	4.319850e-03
14.700	2.101272e-01	1.599134e-01	1.625965e-06	4.365544e-03
14.710	2.127409e-01	1.620477e-01	1.674370e-06	4.477964e-03
14.720	1.981150e-01	1.641037e-01	1.723919e-06	4.591563e-03
14.730	2.008393e-01	1.610998e-01	1.775674e-06	4.682140e-03
14.740	1.977843e-01	1.629970e-01	1.828583e-06	4.798312e-03
14.750	2.003285e-01	1.503111e-01	1.883599e-06	4.833334e-03
14.760	1.861758e-01	1.522502e-01	1.939043e-06	4.954270e-03
14.770	1.887184e-01	1.482461e-01	1.997465e-06	5.037964e-03
14.780	1.911870e-01	1.501306e-01	2.057645e-06	5.162296e-03
14.790	1.868687e-01	1.518355e-01	2.118812e-06	5.286992e-03
14.800	1.891366e-01	1.400304e-01	2.182573e-06	5.310613e-03
14.810	1.756666e-01	1.418110e-01	2.245192e-06	5.440611e-03
14.820	1.780377e-01	1.391674e-01	2.312994e-06	5.533463e-03
14.830	1.751527e-01	1.408387e-01	2.380719e-06	5.666287e-03
14.840	1.773632e-01	1.297279e-01	2.452114e-06	5.673070e-03
14.850	1.644418e-01	1.314034e-01	2.519268e-06	5.810657e-03
14.860	1.666495e-01	1.330446e-01	2.594548e-06	5.950659e-03
14.870	1.687912e-01	1.294751e-01	2.671790e-06	6.032476e-03
14.880	1.647651e-01	1.309646e-01	2.747531e-06	6.173573e-03
14.890	1.667267e-01	1.206440e-01	2.828600e-06	6.167131e-03
14.900	1.545191e-01	1.221832e-01	2.900738e-06	6.313976e-03
14.910	1.565724e-01	1.198656e-01	2.986502e-06	6.407916e-03
14.920	1.539110e-01	1.213272e-01	3.068679e-06	6.557772e-03
14.930	1.558245e-01	1.116347e-01	3.158137e-06	6.532541e-03
14.940	1.441903e-01	1.130730e-01	3.231176e-06	6.686861e-03
14.950	1.460991e-01	1.144831e-01	3.324868e-06	6.843723e-03
14.960	1.479495e-01	1.113872e-01	3.420621e-06	6.921988e-03
14.970	1.443312e-01	1.126846e-01	3.508906e-06	7.079867e-03
14.980	1.460213e-01	1.036960e-01	3.608420e-06	7.040245e-03
14.990	1.350912e-01	1.050205e-01	3.682138e-06	7.204085e-03
15.000	1.368624e-01	1.029960e-01	3.786964e-06	7.298305e-03
15.010	1.344471e-01	1.042662e-01	3.881280e-06	7.465442e-03
15.020	1.360979e-01	1.054178e-01	3.989659e-06	7.631744e-03
15.030	1.257356e-01	9.706822e-02	4.058787e-06	7.576638e-03
15.040	1.273809e-01	9.827466e-02	4.171639e-06	7.750202e-03
15.050	1.289749e-01	9.555531e-02	4.286542e-06	7.823396e-03
15.060	1.256965e-01	9.668068e-02	4.383143e-06	7.998414e-03
15.070	1.271524e-01	8.888193e-02	4.501494e-06	7.923616e-03
15.080	1.174612e-01	9.001833e-02	4.565671e-06	8.104615e-03
15.090	1.189848e-01	9.111284e-02	4.689881e-06	8.286865e-03
15.100	1.168206e-01	8.934753e-02	4.792616e-06	8.382876e-03
15.110	1.182407e-01	9.033463e-02	4.920027e-06	8.565723e-03
15.120	1.195826e-01	8.310167e-02	5.049230e-06	8.474935e-03
15.130	1.105035e-01	8.413084e-02	5.105175e-06	8.665262e-03
15.140	1.118724e-01	8.179471e-02	5.239108e-06	8.734103e-03
15.150	1.089884e-01	8.276547e-02	5.339051e-06	8.926412e-03
15.160	1.102383e-01	7.602155e-02	5.475869e-06	8.815010e-03
15.170	1.017102e-01	7.699281e-02	5.518111e-06	9.013211e-03
15.180	1.030168e-01	7.792724e-02	5.661284e-06	9.212624e-03
15.190	1.010961e-01	7.638986e-02	5.768009e-06	9.307454e-03
15.200	1.023145e-01	7.723992e-02	5.913878e-06	9.507315e-03
15.210	1.034627e-01	7.099724e-02	6.061153e-06	9.379946e-03
15.220	9.550095e-02	7.187332e-02	6.089289e-06	9.587111e-03
15.230	9.667387e-02	6.983501e-02	6.241534e-06	9.649614e-03
15.240	9.410777e-02	7.066942e-02	6.338859e-06	9.859379e-03
15.250	9.517928e-02	7.144275e-02	6.493290e-06	1.006823e-02
15.260	8.772221e-02	6.568563e-02	6.501990e-06	9.926052e-03
15.270	8.884040e-02	6.648141e-02	6.663199e-06	1.014271e-02
15.280	8.714918e-02	6.514803e-02	6.769559e-06	1.023611e-02
15.290	8.819235e-02	6.587661e-02	6.932862e-06	1.045302e-02
15.300	8.917255e-02	6.050563e-02	7.097032e-06	1.028839e-02
15.310	8.222954e-02	6.124949e-02	7.086661e-06	1.051241e-02
15.320	8.323197e-02	5.950953e-02	7.256034e-06	1.057023e-02
15.330	8.100637e-02	6.022343e-02	7.346521e-06	1.079744e-02
15.340	8.192222e-02	6.087768e-02	7.517257e-06	1.102257e-02
15.350	7.543426e-02	5.593072e-02	7.482849e-06	1.084303e-02
15.360	7.638876e-02	5.660888e-02	7.660739e-06	1.107720e-02
15.370	7.490874e-02	5.545657e-02	7.762892e-06	1.116896e-02
15.380	7.579984e-02	5.607874e-02	7.942238e-06	1.140295e-02
15.390	7.663504e-02	5.147077e-02	8.121839e-06	1.120048e-02
15.400	7.060904e-02	5.210155e-02	8.064857e-06	1.144149e-02
15.410	7.146428e-02	5.059249e-02	8.249921e-06	1.149223e-02
15.420	6.950696e-02	5.120181e-02	8.328526e-06	1.173702e-02
15.430	7.028898e-02	5.175490e-02	8.514138e-06	1.197852e-02
15.440	6.466915e-02	4.751564e-02	8.429998e-06	1.176116e-02
15.450	6.548262e-02	4.809292e-02	8.623051e-06	1.201302e-02
15.460	6.419425e-02	4.710056e-02	8.718046e-06	1.210305e-02
15.470	6.495416e-02	4.763040e-02	8.911920e-06	1.235420e-02
15.480	6.566442e-02	4.368704e-02	9.105341e-06	1.211335e-02
15.490	6.045480e-02	4.422115e-02	8.996566e-06	1.237150e-02
15.500	6.118286e-02	4.473701e-02	9.195706e-06	1.263037e-02
15.510	5.950119e-02	4.345823e-02	9.260995e-06	1.267982e-02
15.520	6.016717e-02	4.392464e-02	9.459873e-06	1.293768e-02
15.530	5.531651e-02	4.030083e-02	9.322216e-06	1.268210e-02
15.540	5.600825e-02	4.079028e-02	9.528753e-06	1.295147e-02
15.550	5.489144e-02	3.993884e-02	9.614505e-06	1.303983e-02
15.560	5.553823e-02	4.038879e-02	9.821273e-06	1.330813e-02
15.570	5.614127e-02	3.702264e-02	1.002688e-05	1.302866e-02
15.580	5.165291e-02	3.747421e-02	9.864025e-06	1.330402e-02
15.590	5.227183e-02	3.791029e-02	1.007564e-05	1.358004e-02
15.600	5.080513e-02	3.680905e-02	1.012422e-05	1.362241e-02
15.610	5.137187e-02	3.720217e-02	1.033484e-05	1.389665e-02
15.620	4.719889e-02	3.411231e-02	1.014270e-05	1.360274e-02
15.630	4.778638e-02	3.452557e-02	1.036112e-05	1.388929e-02
15.640	4.682197e-02	3.379810e-02	1.043647e-05	1.397635e-02
15.650	4.737168e-02	3.417939e-02	1.065459e-05	1.426187e-02
15.660	4.788283e-02	3.131254e-02	1.087079e-05	1.394359e-02
15.670	4.402717e-02	3.169356e-02	1.065396e-05	1.423612e-02
15.680	4.455229e-02	3.206146e-02	1.087644e-05	1.452927e-02
15.690	4.330088e-02	3.113164e-02	1.090978e-05	1.456735e-02
15.700	4.378201e-02	3.146299e-02	1.113056e-05	1.485811e-02
15.710	4.020157e-02	2.883396e-02	1.088499e-05	1.452561e-02
15.720	4.069951e-02	2.918222e-02	1.111369e-05	1.482930e-02
15.730	3.986929e-02	2.856208e-02	1.117814e-05	1.491497e-02
15.740	4.033569e-02	2.888446e-02	1.140607e-05	1.521768e-02
15.750	4.076835e-02	2.644810e-02	1.163139e-05	1.486046e-02
15.760	3.746500e-02	2.676919e-02	1.136263e-05	1.517021e-02
15.770	3.791002e-02	2.707919e-02	1.159453e-05	1.548054e-02
15.780	3.682521e-02	2.628001e-02	1.161028e-05	1.551043e-02
15.790	3.723345e-02	2.656033e-02	1.183992e-05	1.581830e-02
15.800	3.416938e-02	2.432829e-02	1.154375e-05	1.544721e-02
15.810	3.459100e-02	2.462147e-02	1.178133e-05	1.576810e-02
15.820	3.387839e-02	2.409402e-02	1.183500e-05	1.585241e-02
15.830	3.427363e-02	2.436615e-02	1.207142e-05	1.617236e-02
15.840	3.463930e-02	2.462000e-02	1.230451e-05	1.649004e-02
15.850	3.181567e-02	2.256984e-02	1.198712e-05	1.610305e-02
15.860	3.219215e-02	2.283061e-02	1.222706e-05	1.643052e-02
15.870	3.127140e-02	2.215761e-02	1.222874e-05	1.645586e-02
15.880	3.161701e-02	2.239412e-02	1.246590e-05	1.678074e-02
15.890	2.900036e-02	2.050251e-02	1.212283e-05	1.637084e-02
15.900	2.935670e-02	2.074889e-02	1.236792e-05	1.670887e-02
15.910	2.874652e-02	2.030115e-02	1.241129e-05	1.679175e-02
15.920	2.908094e-02	2.053045e-02	1.265492e-05	1.712891e-02
15.930	2.938963e-02	2.074341e-02	1.289458e-05	1.746304e-02
15.940	2.698125e-02	1.900801e-02	1.253274e-05	1.703772e-02
15.950	2.729943e-02	1.922716e-02	1.277956e-05	1.738239e-02
15.960	2.650522e-02	1.865120e-02	1.276515e-05	1.739916e-02
15.970	2.679770e-02	1.885059e-02	1.300881e-05	1.774119e-02
15.980	2.456794e-02	1.725053e-02	1.262335e-05	1.729257e-02
15.990	2.486886e-02	1.745741e-02	1.287486e-05	1.764779e-02
16.000	2.434761e-02	1.707809e-02	1.290870e-05	1.772929e-02
16.010	2.463029e-02	1.727105e-02	1.315851e-05	1.808371e-02
16.020	2.489052e-02	1.744950e-02	1.340367e-05	1.843430e-02
16.030	2.284023e-02	1.598295e-02	1.300191e-05	1.797054e-02
16.040	2.310873e-02	1.616685e-02	1.325450e-05	1.833237e-02
16.050	2.243756e-02	1.568370e-02	1.322872e-05	1.834485e-02
16.060	2.268456e-02	1.585141e-02	1.347780e-05	1.870392e-02
16.070	2.078778e-02	1.450001e-02	1.305449e-05	1.821636e-02
16.080	2.104146e-02	1.467345e-02	1.331131e-05	1.858871e-02
16.090	2.059704e-02	1.435262e-02	1.333647e-05	1.866877e-02
